,Time,Tension,Temperature,Pressure,Altitude
0,0.0,0.0,5.53,99981.53,145.6
1,2.0,0.01,5.57,99988.75,144.99
2,3.0,0.0,5.58,99986.21,145.21
3,4.0,-0.01,5.59,99988.67,145.0
4,5.0,-0.01,5.6,99989.64,144.92
5,6.0,-0.01,5.6,99989.4,144.94
6,7.0,-0.01,5.61,99989.42,144.94
7,8.0,-0.01,5.62,99989.98,144.89
8,9.0,-0.01,5.62,99993.02,144.63
9,10.0,-0.01,5.62,99989.34,144.94
10,11.0,-0.01,5.62,99990.22,144.87
11,12.0,-0.01,5.63,99990.14,144.88
12,13.0,-0.01,5.63,99988.19,145.04
13,14.0,-0.01,5.64,99986.53,145.18
14,15.0,-0.01,5.64,99989.57,144.92
15,16.0,-0.01,5.64,99990.97,144.81
16,18.0,-0.01,5.65,99991.47,144.76
17,19.0,-0.01,5.65,99982.83,145.49
18,20.0,-0.01,5.65,99987.19,145.12
19,21.0,-0.01,5.66,99990.64,144.83
20,22.0,-0.01,5.65,99991.06,144.8
21,23.0,-0.01,5.66,99993.77,144.57
22,24.0,-0.01,5.66,99989.26,144.95
23,25.0,-0.01,5.66,99985.96,145.23
24,26.0,0.13,5.66,99991.61,144.75
25,27.0,0.34,5.67,99987.61,145.09
26,28.0,0.14,5.67,99991.86,144.73
27,29.0,0.11,5.67,99988.09,145.05
28,30.0,0.03,5.67,99992.19,144.7
29,31.0,1.51,5.68,99992.28,144.7
30,32.0,4.59,5.68,99990.64,144.83
31,34.0,0.2,5.68,99986.63,145.17
32,35.0,0.09,5.68,99986.71,145.16
33,36.0,0.09,5.68,99989.17,145.18
34,37.0,0.25,5.68,99983.19,145.46
35,38.0,3.59,5.69,99985.38,145.28
36,39.0,2.38,5.69,99986.88,145.15
37,40.0,1.94,5.69,99990.98,144.8
38,41.0,1.23,5.69,99989.75,144.91
39,42.0,0.06,5.69,99984.5,145.31
40,43.0,0.03,5.7,99986.89,145.15
41,44.0,0.04,5.7,99985.64,145.25
42,45.0,0.03,5.7,99985.81,145.24
43,46.0,0.03,5.71,99989.44,144.94
44,47.0,0.03,5.71,99988.92,144.98
45,48.0,0.03,5.71,99990.32,144.83
46,50.0,0.03,5.72,99993.61,144.59
47,51.0,0.03,5.71,99989.82,144.9
48,52.0,0.03,5.72,99990.58,144.84
49,53.0,0.03,5.72,99990.83,144.82
50,54.0,0.04,5.72,99989.75,144.91
51,55.0,0.03,5.72,99988.77,144.99
52,56.0,0.03,5.72,99990.39,144.85
53,57.0,0.04,5.73,99986.55,145.18
54,58.0,0.04,5.72,99989.57,144.92
55,59.0,0.04,5.73,99988.78,144.99
56,60.0,0.04,5.73,99993.28,144.61
57,61.0,0.04,5.73,99992.14,144.71
58,62.0,0.04,5.73,99990.74,144.83
59,63.0,0.04,5.74,99997.21,144.28
60,64.0,0.04,5.74,99987.52,145.1
61,66.0,0.04,5.74,99987.94,145.06
62,67.0,0.04,5.74,99989.82,144.9
63,68.0,0.04,5.74,99985.57,145.26
64,69.0,0.04,5.74,99986.97,145.14
65,70.0,0.04,5.75,99986.46,145.19
66,71.0,0.04,5.75,99990.39,144.85
67,72.0,0.04,5.75,99988.92,144.98
68,73.0,0.04,5.75,99987.6,145.09
69,74.0,0.04,5.76,99986.89,145.15
70,75.0,0.04,5.76,99989.35,144.94
71,76.0,0.04,5.76,99992.63,144.67
72,77.0,0.04,5.76,99990.75,144.83
73,78.0,0.04,5.76,99989.85,144.9
74,79.0,0.04,5.76,99988.44,145.02
75,80.0,0.03,5.76,99990.64,144.83
76,81.0,0.04,5.76,99988.67,145.0
77,83.0,0.04,5.77,99982.78,145.49
78,84.0,0.04,5.77,99990.75,144.83
79,85.0,0.04,5.77,99991.63,144.75
80,86.0,0.04,5.77,99986.79,145.16
81,87.0,0.04,5.77,99988.92,144.98
82,88.0,0.04,5.77,99989.91,144.89
83,89.0,0.04,5.78,99987.96,145.06
84,90.0,0.04,5.78,99988.11,145.05
85,91.0,0.04,5.78,99989.35,144.94
86,92.0,0.04,5.79,99990.25,144.87
87,93.0,0.03,5.78,99987.27,145.12
88,94.0,0.02,5.79,99987.21,145.12
89,95.0,0.04,5.79,99984.0,145.39
90,96.0,0.07,5.79,99989.99,144.89
91,97.0,0.06,5.79,99989.75,144.91
92,99.0,0.06,5.8,99986.38,145.19
93,100.0,0.06,5.8,99991.18,144.79
94,101.0,0.07,5.8,99990.12,144.88
95,102.0,0.08,5.8,99986.18,145.21
96,103.0,0.06,5.81,99988.07,145.05
97,104.0,0.09,5.81,99990.92,144.81
98,105.0,0.39,5.81,99991.09,144.8
99,106.0,0.09,5.81,99989.44,144.9
100,107.0,0.36,5.82,99990.03,144.88
101,108.0,2.49,5.82,99990.86,144.82
102,109.0,3.15,5.82,99989.88,144.9
103,110.0,2.88,5.82,99990.13,144.88
104,111.0,2.7,5.82,99989.61,144.92
105,112.0,2.67,5.82,99987.97,145.04
106,113.0,2.35,5.82,99990.11,144.88
107,115.0,1.9,5.82,99988.96,144.98
108,116.0,3.52,5.83,99992.5,144.68
109,117.0,1.65,5.83,99987.1,145.13
110,118.0,2.4,5.83,99989.39,144.94
111,119.0,2.21,5.83,99988.4,145.02
112,120.0,2.59,5.84,99987.24,145.12
113,121.0,4.4,5.84,99986.91,145.15
114,122.0,0.41,5.84,99987.0,145.14
115,123.0,0.22,5.84,99991.6,144.75
116,124.0,0.34,5.85,99993.64,144.58
117,125.0,0.02,5.84,99991.77,144.74
118,126.0,0.03,5.85,99990.19,144.87
119,127.0,0.03,5.85,99987.23,145.12
120,128.0,0.04,5.84,99992.27,144.7
121,129.0,0.04,5.85,99996.19,144.37
122,131.0,0.04,5.85,99993.82,144.57
123,132.0,0.04,5.85,99993.9,144.56
124,133.0,0.04,5.86,99997.17,144.28
125,134.0,0.04,5.86,99991.75,144.74
126,135.0,0.04,5.86,99992.08,144.71
127,136.0,0.04,5.86,99989.45,144.93
128,137.0,0.04,5.86,99990.1,144.88
129,138.0,0.04,5.86,99991.35,144.78
130,139.0,0.05,5.87,99994.64,144.5
131,140.0,0.1,5.87,99998.83,144.15
132,141.0,0.08,5.87,99996.21,144.37
133,142.0,0.08,5.87,99992.82,144.65
134,143.0,0.08,5.87,99995.86,144.54
135,144.0,0.08,5.87,99988.96,144.98
136,145.0,0.08,5.87,99993.97,144.55
137,147.0,0.08,5.88,99991.35,144.78
138,148.0,0.1,5.88,99993.32,144.61
139,149.0,0.09,5.88,99992.66,144.66
140,150.0,0.09,5.88,99991.53,144.76
141,151.0,0.08,5.88,99987.97,145.06
142,152.0,0.19,5.88,99992.41,144.69
143,153.0,0.1,5.89,99992.42,144.69
144,154.0,0.08,5.89,99993.15,144.62
145,155.0,0.06,5.88,99993.55,144.59
146,156.0,0.06,5.9,99989.86,144.9
147,157.0,0.06,5.89,99996.38,144.35
148,158.0,0.06,5.9,99995.86,144.39
149,159.0,0.07,5.9,99994.71,144.49
150,160.0,0.06,5.9,99995.53,144.42
151,161.0,0.06,5.9,99995.38,144.47
152,163.0,0.06,5.9,99992.99,144.64
153,164.0,0.06,5.91,99993.66,144.58
154,165.0,0.06,5.91,99994.0,144.55
155,166.0,0.06,5.91,99994.96,144.47
156,167.0,0.06,5.92,99996.38,144.35
157,168.0,0.06,5.91,99995.38,144.43
158,169.0,0.06,5.92,99996.38,144.35
159,170.0,0.06,5.92,99995.88,144.39
160,171.0,0.06,5.92,99992.09,144.71
161,172.0,0.06,5.92,99994.13,144.54
162,173.0,0.07,5.92,99990.78,144.82
163,174.0,0.07,5.92,99998.17,144.2
164,175.0,0.07,5.92,99996.27,144.36
165,176.0,0.07,5.93,99999.8,144.06
166,177.0,0.07,5.93,99996.75,144.32
167,178.0,0.07,5.94,99994.3,144.53
168,180.0,0.06,5.93,99995.69,144.41
169,181.0,0.06,5.94,99996.2,144.37
170,182.0,0.06,5.94,100000.28,144.02
171,183.0,0.07,5.94,99997.67,144.24
172,184.0,0.06,5.95,99999.06,144.13
173,185.0,0.06,5.95,99999.88,144.06
174,186.0,0.06,5.95,100002.11,143.92
175,187.0,0.06,5.95,99999.82,144.06
176,188.0,0.07,5.96,100000.21,144.03
177,189.0,0.06,5.96,99997.75,144.24
178,190.0,0.05,5.96,99997.33,144.27
179,191.0,0.05,5.96,99998.83,144.15
180,192.0,0.05,5.97,99997.6,144.25
181,193.0,0.06,5.97,99998.49,144.17
182,194.0,0.06,5.97,99998.89,144.14
183,196.0,0.07,5.97,99998.07,144.21
184,197.0,0.06,5.98,99996.78,144.32
185,198.0,0.07,5.98,99999.5,144.09
186,199.0,0.07,5.98,99997.58,144.25
187,200.0,0.07,5.98,99998.57,144.17
188,201.0,0.07,5.98,100001.28,143.94
189,202.0,0.14,5.99,100000.31,144.02
190,203.0,0.16,5.99,100001.27,143.94
191,204.0,0.2,6.0,99996.92,144.43
192,205.0,0.37,5.99,100002.26,143.86
193,206.0,0.42,6.0,100002.85,143.81
194,207.0,0.4,6.0,99997.1,144.29
195,208.0,0.31,6.0,99999.97,144.05
196,209.0,0.31,6.01,99999.88,144.06
197,210.0,0.31,6.01,99997.08,144.29
198,212.0,0.31,6.01,100000.71,143.99
199,213.0,0.24,6.01,100000.64,143.99
200,214.0,0.3,6.01,100003.17,143.78
201,215.0,0.26,6.01,99999.32,144.1
202,216.0,0.28,6.01,99996.36,144.35
203,217.0,0.34,6.02,100002.1,143.87
204,218.0,0.33,6.02,100004.23,143.69
205,219.0,0.26,6.02,100000.86,143.97
206,220.0,0.24,6.02,99999.97,144.05
207,221.0,0.08,6.03,100001.44,143.92
208,222.0,0.03,6.03,100003.25,143.77
209,223.0,-0.02,6.04,99999.0,144.13
210,224.0,-0.01,6.04,100005.71,143.57
211,225.0,0.02,6.04,100004.23,143.69
212,226.0,0.07,6.05,100002.6,143.83
213,228.0,0.48,6.05,99999.24,144.11
214,229.0,1.83,6.05,100003.92,143.72
215,230.0,0.9,6.06,100001.69,143.91
216,231.0,-0.01,6.06,100001.7,143.9
217,232.0,-0.0,6.06,100004.25,143.69
218,233.0,0.0,6.06,99999.49,144.09
219,234.0,0.0,6.07,100002.59,143.83
220,235.0,0.0,6.07,100003.1,143.79
221,236.0,0.0,6.08,99999.73,144.07
222,237.0,0.0,6.08,100000.04,144.04
223,238.0,0.01,6.08,100000.78,143.98
224,239.0,0.03,6.08,100001.52,143.92
225,240.0,0.04,6.09,99998.58,144.17
226,241.0,0.04,6.09,100000.69,143.99
227,242.0,0.05,6.1,100001.03,143.96
228,243.0,0.04,6.1,100002.67,143.82
229,245.0,0.02,6.09,100003.32,143.77
230,246.0,0.01,6.1,100001.69,143.91
231,247.0,0.01,6.1,100004.99,143.63
232,248.0,0.01,6.1,100003.24,143.77
233,249.0,0.02,6.11,99999.55,144.09
234,250.0,0.02,6.11,100001.52,143.92
235,251.0,0.02,6.11,100006.79,143.48
236,252.0,0.06,6.11,100003.75,143.73
237,253.0,0.08,6.11,99999.82,144.06
238,0.0,0.0,5.59,99951.97,148.09
239,2.0,0.0,5.62,99950.1,148.24
240,3.0,0.0,5.63,99948.54,148.37
241,4.0,0.01,5.64,99949.85,148.27
242,5.0,0.05,5.64,99948.3,148.4
243,6.0,0.03,5.65,99944.86,148.68
244,7.0,0.08,5.65,99933.44,149.65
245,8.0,0.07,5.66,99933.69,149.62
246,9.0,0.08,5.66,99939.11,149.17
247,10.0,0.08,5.66,99938.2,149.25
248,11.0,0.08,5.66,99935.34,149.49
249,12.0,0.08,5.66,99937.46,149.31
250,13.0,0.09,5.67,99933.03,149.68
251,14.0,0.07,5.67,99939.27,149.15
252,15.0,0.07,5.67,99937.97,149.26
253,16.0,0.07,5.67,99933.21,149.67
254,18.0,0.07,5.67,99933.28,149.66
255,19.0,0.07,5.67,99933.71,149.62
256,20.0,0.07,5.67,99935.07,149.51
257,21.0,0.06,5.68,99928.77,150.04
258,22.0,0.06,5.68,99935.0,149.52
259,23.0,0.07,5.68,99934.52,149.56
260,24.0,0.07,5.68,99932.55,149.72
261,25.0,0.07,5.68,99939.03,149.17
262,26.0,0.06,5.68,99936.32,149.4
263,27.0,0.06,5.68,99935.34,149.49
264,28.0,0.06,5.68,99939.28,149.15
265,29.0,0.06,5.69,99940.0,149.36
266,30.0,0.06,5.69,99934.25,149.58
267,31.0,0.06,5.69,99936.89,149.35
268,32.0,0.06,5.69,99933.03,149.68
269,34.0,0.06,5.69,99935.75,149.45
270,35.0,0.06,5.69,99934.11,149.59
271,36.0,0.06,5.7,99942.24,148.87
272,37.0,0.06,5.7,99939.12,149.17
273,38.0,0.06,5.7,99939.12,149.17
274,39.0,0.06,5.7,99939.35,149.15
275,40.0,0.07,5.7,99944.1,148.75
276,41.0,0.06,5.7,99944.6,148.71
277,42.0,0.06,5.7,99939.83,149.11
278,43.0,0.06,5.7,99943.61,148.79
279,44.0,0.07,5.7,99939.1,149.17
280,45.0,0.07,5.7,99938.11,149.25
281,46.0,0.07,5.7,99938.19,149.25
282,47.0,0.06,5.7,99941.49,148.97
283,48.0,0.06,5.71,99938.29,149.24
284,50.0,0.06,5.71,99941.17,149.0
285,51.0,0.06,5.71,99940.1,149.09
286,52.0,0.06,5.71,99939.1,149.17
287,53.0,0.06,5.71,99935.97,149.43
288,54.0,0.06,5.71,99931.49,149.81
289,55.0,0.06,5.71,99937.46,149.31
290,56.0,0.06,5.71,99940.9,149.02
291,57.0,0.08,5.71,99943.61,148.79
292,58.0,0.09,5.71,99940.08,149.09
293,59.0,0.08,5.72,99940.35,149.06
294,60.0,0.07,5.71,99935.41,149.48
295,61.0,0.07,5.72,99943.3,148.82
296,62.0,0.08,5.72,99938.28,149.24
297,63.0,0.08,5.72,99939.94,149.1
298,64.0,0.06,5.72,99944.6,148.71
299,66.0,0.06,5.72,99941.66,148.95
300,67.0,0.06,5.72,99940.75,149.03
301,68.0,0.06,5.72,99941.0,149.01
302,69.0,0.05,5.72,99937.04,149.34
303,70.0,0.05,5.72,99940.51,149.05
304,71.0,0.06,5.72,99939.28,149.15
305,72.0,0.07,5.72,99940.33,149.07
306,73.0,0.07,5.72,99938.69,149.2
307,74.0,0.06,5.73,99943.96,148.76
308,75.0,0.07,5.73,99935.49,149.47
309,76.0,0.08,5.73,99938.61,149.21
310,77.0,0.08,5.73,99938.77,149.2
311,78.0,0.09,5.72,99935.89,149.44
312,79.0,0.08,5.73,99939.52,149.14
313,80.0,0.1,5.73,99936.82,149.36
314,82.0,0.12,5.73,99938.86,149.19
315,83.0,0.08,5.73,99938.88,149.19
316,84.0,0.07,5.73,99932.32,149.74
317,85.0,0.06,5.73,99936.91,149.35
318,86.0,0.02,5.73,99939.85,149.11
319,87.0,0.02,5.73,99940.92,149.02
320,88.0,0.04,5.74,99942.22,148.91
321,89.0,0.04,5.74,99941.89,148.93
322,90.0,0.05,5.74,99939.18,149.16
323,91.0,0.05,5.74,99940.0,149.09
324,92.0,0.04,5.74,99946.74,148.53
325,93.0,0.05,5.74,99936.96,149.35
326,94.0,0.09,5.74,99945.26,148.65
327,95.0,0.08,5.74,99941.25,148.99
328,96.0,0.07,5.74,99943.71,148.78
329,98.0,0.08,5.74,99939.6,149.13
330,99.0,0.07,5.74,99939.27,149.15
331,100.0,0.06,5.74,99945.35,148.64
332,101.0,0.06,5.74,99943.54,148.8
333,102.0,0.06,5.74,99944.13,148.75
334,103.0,0.05,5.75,99945.91,148.6
335,104.0,0.05,5.75,99943.61,148.79
336,105.0,0.07,5.75,99943.55,148.79
337,106.0,0.06,5.74,99941.33,148.98
338,107.0,0.06,5.75,99941.89,148.93
339,108.0,0.07,5.75,99938.36,149.23
340,109.0,0.07,5.75,99944.03,148.75
341,110.0,0.07,5.75,99942.06,148.92
342,111.0,0.09,5.75,99937.46,149.31
343,112.0,0.1,5.75,99935.74,149.45
344,113.0,0.1,5.76,99938.46,149.22
345,115.0,0.09,5.75,99941.99,148.93
346,116.0,0.1,5.76,99942.89,148.85
347,117.0,0.11,5.75,99935.99,149.43
348,118.0,0.08,5.75,99943.3,148.82
349,119.0,0.05,5.76,99945.33,148.64
350,120.0,0.05,5.76,99945.11,148.66
351,121.0,0.05,5.76,99945.44,148.64
352,122.0,0.08,5.76,99942.3,148.9
353,123.0,0.08,5.76,99941.64,148.96
354,124.0,0.06,5.77,99939.44,149.14
355,125.0,0.3,5.77,99939.92,149.1
356,126.0,0.27,5.77,99941.55,148.96
357,127.0,0.22,5.77,99947.9,148.43
358,128.0,0.23,5.77,99946.26,148.57
359,129.0,0.29,5.77,99950.17,148.24
360,131.0,0.25,5.77,99943.61,148.79
361,132.0,0.25,5.78,99950.75,148.19
362,133.0,0.26,5.78,99953.64,147.95
363,134.0,0.24,5.78,99952.99,148.0
364,135.0,0.24,5.78,99945.03,148.67
365,136.0,0.75,5.78,99936.73,149.37
366,137.0,1.17,5.78,99934.19,149.58
367,138.0,1.04,5.78,99928.17,150.12
368,139.0,0.91,5.78,99929.0,150.02
369,140.0,1.13,5.79,99928.27,150.08
370,141.0,1.06,5.79,99930.25,149.91
371,142.0,1.03,5.79,99920.47,150.74
372,143.0,0.96,5.79,99922.78,150.54
373,144.0,1.01,5.79,99919.66,150.98
374,145.0,0.98,5.8,99921.89,150.62
375,147.0,0.83,5.8,99918.05,150.94
376,148.0,0.82,5.81,99917.21,151.01
377,149.0,0.66,5.81,99913.03,151.36
378,150.0,0.86,5.81,99915.16,151.18
379,151.0,0.69,5.81,99916.57,151.31
380,152.0,0.89,5.81,99913.28,151.34
381,153.0,0.76,5.82,99910.23,151.6
382,154.0,0.67,5.82,99915.24,151.18
383,155.0,0.74,5.82,99922.32,150.58
384,156.0,0.77,5.83,99920.75,150.71
385,157.0,0.89,5.83,99905.16,151.75
386,158.0,0.87,5.83,99916.66,151.06
387,159.0,0.75,5.83,99907.05,151.86
388,160.0,0.73,5.83,99905.39,152.0
389,161.0,0.74,5.84,99906.97,151.87
390,163.0,0.74,5.84,99909.42,151.67
391,164.0,0.76,5.84,99902.13,152.28
392,165.0,0.84,5.85,99909.42,151.67
393,166.0,0.74,5.86,99892.35,153.1
394,167.0,0.76,5.86,99906.32,151.93
395,168.0,1.01,5.87,99902.11,152.28
396,169.0,1.38,5.87,99883.57,153.84
397,170.0,1.52,5.87,99881.93,153.98
398,171.0,1.31,5.87,99865.57,155.36
399,172.0,1.36,5.88,99863.11,155.56
400,173.0,1.62,5.89,99863.77,155.51
401,174.0,1.42,5.89,99860.41,155.79
402,175.0,1.41,5.89,99855.97,156.16
403,176.0,1.93,5.89,99844.57,157.13
404,177.0,1.76,5.9,99842.74,157.28
405,179.0,1.58,5.9,99832.65,158.13
406,180.0,1.81,5.91,99826.51,158.64
407,181.0,2.13,5.91,99822.71,158.96
408,182.0,3.12,5.92,99821.91,159.03
409,183.0,2.63,5.92,99815.5,159.57
410,184.0,2.77,5.93,99816.95,159.45
411,185.0,2.8,5.95,99803.0,160.62
412,186.0,2.96,5.94,99813.2,159.77
413,187.0,3.04,5.95,99798.65,160.99
414,188.0,3.08,5.95,99793.89,161.5
415,189.0,4.09,5.95,99793.24,161.45
416,190.0,3.99,5.95,99783.55,162.26
417,191.0,3.83,5.95,99782.41,162.36
418,192.0,3.88,5.96,99781.82,162.41
419,193.0,4.23,5.96,99776.57,162.85
420,195.0,4.42,5.97,99755.94,164.59
421,196.0,4.54,5.98,99762.11,164.07
422,197.0,4.65,5.97,99751.6,164.95
423,198.0,4.59,5.97,99741.5,165.81
424,199.0,4.83,5.98,99737.22,166.17
425,200.0,5.65,5.99,99726.64,167.06
426,201.0,5.47,5.99,99720.89,167.54
427,202.0,5.69,6.0,99717.02,167.87
428,203.0,5.76,6.0,99705.69,168.82
429,204.0,6.35,6.0,99699.05,169.38
430,205.0,6.18,6.0,99692.64,169.92
431,206.0,6.67,6.01,99683.25,170.71
432,207.0,6.78,6.01,99684.02,170.65
433,208.0,6.66,6.02,99685.39,170.54
434,209.0,7.11,6.02,99672.67,171.61
435,210.0,7.64,6.02,99673.98,171.5
436,212.0,8.51,6.02,99664.79,172.27
437,213.0,8.56,6.03,99662.33,172.48
438,214.0,8.57,6.03,99660.86,172.6
439,215.0,8.04,6.04,99651.49,173.39
440,216.0,8.44,6.04,99652.39,173.32
441,217.0,8.14,6.04,99657.24,172.91
442,218.0,8.91,6.05,99648.27,173.67
443,219.0,7.89,6.05,99648.52,173.64
444,220.0,8.69,6.05,99650.89,173.44
445,221.0,8.61,6.05,99645.64,173.89
446,222.0,8.85,6.05,99638.18,174.52
447,223.0,8.29,6.06,99630.19,175.19
448,224.0,8.72,6.06,99638.58,174.48
449,225.0,8.84,6.06,99629.47,175.25
450,226.0,9.07,6.07,99630.38,175.17
451,228.0,8.43,6.07,99636.35,174.67
452,229.0,9.08,6.07,99636.35,174.67
453,230.0,8.01,6.07,99635.94,174.7
454,231.0,9.19,6.08,99640.61,174.31
455,232.0,9.22,6.09,99629.69,175.23
456,233.0,12.12,6.09,99617.3,176.28
457,234.0,11.84,6.09,99546.03,182.29
458,235.0,11.63,6.09,99472.53,188.49
459,236.0,10.67,6.09,99395.27,195.02
460,237.0,10.61,6.1,99329.07,200.62
461,238.0,10.18,6.1,99275.46,205.15
462,239.0,11.8,6.1,99194.5,212.0
463,240.0,10.32,6.11,99119.61,218.34
464,241.0,11.74,6.11,99042.18,224.9
465,242.0,10.88,6.1,98971.57,230.88
466,244.0,11.77,6.11,98889.89,237.81
467,245.0,10.94,6.11,98808.13,244.75
468,246.0,10.76,6.12,98726.17,251.71
469,247.0,11.21,6.12,98647.35,258.41
470,248.0,10.68,6.12,98578.81,264.24
471,249.0,10.88,6.11,98507.59,270.3
472,250.0,11.67,6.13,98442.02,275.89
473,251.0,11.27,6.12,98357.17,283.11
474,252.0,11.36,6.12,98286.25,289.16
475,253.0,11.1,6.13,98214.44,295.28
476,254.0,11.04,6.13,98135.97,302.32
477,255.0,10.73,6.14,98056.24,308.79
478,256.0,11.59,6.14,97984.83,314.89
479,257.0,10.46,6.14,97910.07,321.29
480,258.0,11.24,6.13,97841.78,327.13
481,260.0,11.07,6.14,97772.52,333.06
482,261.0,11.21,6.13,97709.24,338.48
483,262.0,11.67,6.14,97636.64,344.7
484,263.0,11.37,6.14,97563.82,350.95
485,264.0,11.1,6.15,97495.33,356.82
486,265.0,11.58,6.14,97420.33,363.26
487,266.0,11.83,6.14,97343.28,369.88
488,267.0,11.62,6.15,97280.82,375.25
489,268.0,11.56,6.14,97198.05,382.37
490,269.0,11.48,6.14,97115.91,389.44
491,270.0,11.34,6.15,97039.18,396.05
492,271.0,11.28,6.14,96971.66,401.87
493,272.0,11.93,6.15,96896.58,408.34
494,273.0,11.11,6.14,96822.67,414.72
495,274.0,10.91,6.16,96756.06,420.47
496,276.0,10.83,6.15,96668.71,428.02
497,277.0,11.04,6.15,96603.72,433.64
498,278.0,11.31,6.14,96535.53,439.53
499,279.0,11.49,6.15,96455.55,446.46
500,280.0,11.13,6.15,96390.16,452.12
501,281.0,11.0,6.15,96315.75,458.57
502,282.0,10.37,6.16,96252.85,464.02
503,283.0,10.71,6.15,96173.07,470.94
504,284.0,11.44,6.15,96108.55,476.54
505,285.0,10.98,6.15,96040.3,482.47
506,286.0,10.93,6.15,95963.03,489.19
507,287.0,11.0,6.15,95891.87,495.37
508,288.0,11.43,6.15,95816.08,501.97
509,289.0,11.27,6.15,95732.83,509.22
510,290.0,11.34,6.15,95673.55,514.38
511,291.0,11.06,6.15,95590.55,521.62
512,293.0,10.97,6.15,95508.22,528.8
513,294.0,10.69,6.15,95440.72,534.7
514,295.0,10.87,6.15,95366.1,541.21
515,296.0,11.25,6.14,95303.8,546.66
516,297.0,11.38,6.14,95231.8,552.95
517,298.0,11.22,6.14,95154.57,559.71
518,299.0,11.24,6.14,95082.17,566.05
519,300.0,11.13,6.14,95004.5,572.86
520,301.0,11.25,6.14,94947.28,578.26
521,302.0,11.21,6.14,94873.07,584.38
522,303.0,10.89,6.14,94804.95,590.36
523,304.0,11.14,6.13,94737.66,596.27
524,305.0,11.15,6.13,94654.63,603.57
525,306.0,10.95,6.13,94604.35,607.99
526,307.0,11.14,6.13,94517.78,615.61
527,309.0,11.38,6.13,94446.33,621.9
528,310.0,11.15,6.13,94361.53,629.37
529,311.0,10.86,6.13,94289.89,635.68
530,312.0,11.04,6.12,94210.98,642.65
531,313.0,11.18,6.12,94140.46,648.84
532,314.0,11.05,6.12,94056.89,656.25
533,315.0,10.64,6.12,93994.47,661.77
534,316.0,10.49,6.12,93937.85,666.78
535,317.0,10.82,6.13,93852.97,674.29
536,318.0,11.03,6.12,93775.16,681.18
537,319.0,11.11,6.12,93705.17,687.38
538,320.0,10.86,6.12,93627.75,694.24
539,321.0,11.23,6.11,93571.7,699.21
540,322.0,11.23,6.11,93487.85,706.66
541,323.0,10.96,6.11,93417.05,712.95
542,325.0,11.13,6.11,93337.02,720.06
543,326.0,11.11,6.11,93266.82,726.3
544,327.0,11.35,6.1,93200.39,732.22
545,328.0,11.31,6.11,93108.85,740.37
546,329.0,10.8,6.1,93048.72,745.73
547,330.0,10.54,6.1,92972.85,752.49
548,331.0,10.91,6.1,92905.74,758.48
549,332.0,10.72,6.1,92833.19,764.96
550,333.0,10.66,6.1,92767.0,770.87
551,334.0,10.9,6.1,92686.5,778.07
552,335.0,11.26,6.09,92623.91,783.66
553,336.0,11.06,6.09,92540.27,791.15
554,337.0,10.84,6.09,92475.23,796.97
555,338.0,10.95,6.09,92400.47,803.67
556,339.0,11.21,6.09,92341.0,809.01
557,341.0,11.48,6.08,92257.57,816.49
558,342.0,11.12,6.08,92181.8,823.29
559,343.0,10.9,6.08,92107.1,830.0
560,344.0,10.66,6.07,92025.21,837.37
561,345.0,11.07,6.07,91950.67,844.07
562,346.0,11.32,6.06,91869.96,851.34
